---Stopping/Range Input Data (Number-format: Period = Decimal Point)
---Output File Name
"D:\.netbeans\ijNB\plugins\Paparamborde\SR.OUT"
---Ion(Z), Ion Mass(u)
2 4.003
---Target Data: (Solid=0,Gas=1), Density(g/cm3), Compound Corr.
0 1.06 1.045
---Number of Target Elements
4
---Target Elements: (Z), Target name, Stoich, Target Mass(u)
6 "Carbon" 0.3125 12.011
1 "Hydrogen" 0.53125 1.008
8 "Oxygen" 0.09375 15.999
7 "Nitrogen" 0.0625 14.007
---Output Stopping Units (1-8)
4
---Ion Energy : E-Min(keV), E-Max(keV)
0 0
1.1100006
6.044998
10.979996
15.914993
20.84999
25.784988
30.719986
35.654984
40.59001
45.52501
50.460007
55.395004
60.33
65.265
70.2
75.134995
80.06999
85.00499
89.93999
94.874985
99.80998
104.74501
109.68001
114.615005
119.55
124.485
129.42
134.355
139.29
144.22499
149.15999
154.09499
159.02998
163.96498
168.90001
173.835
178.77
183.705
188.64
193.575
198.51
203.44499
208.37999
213.31499
218.24998
223.18498
228.12001
233.05501
237.99
242.925
247.86
252.795
257.72998
262.66498
267.59998
272.53497
277.46997
282.40497
287.33997
292.27496
297.20996
302.14496
307.07996
312.01495
316.94995
321.88495
326.82
331.755
336.69
341.625
346.56
351.495
356.43
361.365
366.3
371.235
376.16998
381.10498
386.03998
390.97498
395.90997
400.84497
405.77997
410.71497
415.64996
420.58496
425.51996
430.45496
435.38995
440.32495
445.25995
450.195
455.13
460.065
465.0
469.935
474.87
479.805
484.74
489.675
494.61
499.54498
504.47998
509.41498
514.35
519.285
524.22
529.15497
534.08997
539.02496
543.95996
548.89496
553.82996
558.76495
563.69995
568.63495
573.56995
578.505
583.44
588.375
593.31
598.245
603.18
608.115
613.05
617.985
622.92
627.855
632.79
637.725
642.66
647.595
652.52997
657.46497
662.39996
667.33496
672.26996
677.20496
682.13995
687.07495
692.00995
696.94495
701.88
706.815
711.75
716.685
721.62
726.555
731.49
736.425
741.36
746.295
751.23
756.165
761.1
766.035
770.97
775.90497
780.83997
785.775
790.70996
795.645
800.57996
805.515
810.44995
815.385
820.31995
825.255
830.18994
835.125
840.05994
844.995
849.92993
854.865
859.7999
864.735
869.6699
874.605
879.5399
884.475
889.4099
894.345
899.28
904.21497
909.15
914.08496
919.02
923.95496
928.89
933.82495
938.76
943.69495
948.63
953.56494
958.5
963.43494
968.37
973.30493
978.24
983.1749
988.11
993.0449
997.98
1002.9149
1007.85
1012.7849
1017.72
1022.655
1027.59
1032.525
1037.46
1042.395
1047.33
1052.265
1057.2
1062.135
1067.07
1072.005
1076.94
1081.875
1086.8099
1091.745
1096.6799
1101.615
1106.5499
1111.485
1116.4199
1121.355
1126.2899
1131.225
1136.1599
1141.095
1146.03
1150.965
1155.9
1160.835
1165.77
1170.705
1175.64
1180.575
1185.51
1190.445
1195.38
1200.315
1205.25
1210.1849
1215.12
1220.0549
1224.99
1229.9249
1234.86
1239.7949
1244.73
1249.6649
1254.6
1259.5349
1264.47
1269.4049
1274.34
1279.275
1284.21
1289.145
1294.08
1299.015
1303.95
1308.885
1313.82
1318.755
1323.69
1328.625
1333.5599
1338.495
1343.4299
1348.365
1353.2999
1358.235
1363.1699
1368.105
1373.0399
1377.975
1382.9099
1387.845
1392.7799
1397.715
1402.65
1407.585
1412.52
1417.455
1422.39
1427.325
1432.26
1437.195
1442.13
1447.065
1452.0
1456.9349
1461.87
1466.8049
1471.74
1476.6749
1481.61
1486.5449
1491.48
1496.4149
1501.35
1506.2849
1511.22
1516.1549
1521.09
1526.025
1530.96
1535.895
1540.83
1545.765
1550.7
1555.635
1560.57
1565.505
1570.44
1575.375
1580.3099
1585.245
1590.1799
1595.115
1600.0499
1604.985
1609.9199
1614.855
1619.7899
1624.725
1629.6599
1634.595
1639.5299
1644.465
1649.4
1654.335
1659.27
1664.205
1669.14
1674.075
1679.01
1683.945
1688.88
1693.815
1698.75
1703.6849
1708.62
1713.5549
1718.49
1723.4249
1728.36
1733.2949
1738.23
1743.1649
1748.1
1753.0349
1757.97
1762.9049
1767.84
1772.7749
1777.71
1782.645
1787.58
1792.515
1797.45
1802.3849
1807.32
1812.255
1817.1901
1822.1249
1827.0599
1831.995
1836.93
1841.8649
1846.7999
1851.735
1856.67
1861.6049
1866.5399
1871.475
1876.41
1881.3448
1886.2799
1891.215
1896.15
1901.0848
1906.0199
1910.955
1915.89
1920.8251
1925.7599
1930.695
1935.63
1940.5651
1945.4999
1950.4349
1955.37
1960.305
1965.2399
1970.1749
1975.11
1980.045
1984.9799
1989.9149
1994.85
1999.785
0
